wavelength,mm_cm_2
3000.0,5.719913264564206e-09
3001.0,5.725763008721962e-09
3002.0,5.7315124715513006e-09
3003.0,5.7376296325848405e-09
3004.0,5.743412522523651e-09
3005.0,5.749228839571936e-09
3006.0,5.7561148241233525e-09
3007.0,5.761931141171634e-09
3008.0,5.768014875095703e-09
3009.0,5.773831192143988e-09
3010.0,5.7806503224764585e-09
3011.0,5.787870578122604e-09
3012.0,5.7936868951708864e-09
3013.0,5.799870910423375e-09
3014.0,5.805720654581132e-09
3015.0,5.811570398738888e-09
3016.0,5.817420142896645e-09
3017.0,5.8236710123680714e-09
3018.0,5.829520756525833e-09
3019.0,5.836573876624616e-09
3020.0,5.842925027424465e-09
3021.0,5.849276178224316e-09
3022.0,5.856563288089405e-09
3023.0,5.862814157560839e-09
3024.0,5.868964745703852e-09
3025.0,5.874847916971082e-09
3026.0,5.8818676099603904e-09
3027.0,5.888920730059169e-09
3028.0,5.894937609764293e-09
3029.0,5.900854208140996e-09
3030.0,5.90690451495559e-09
3031.0,5.915461854980652e-09
3032.0,5.921378453357352e-09
3033.0,5.9274956143908945e-09
3034.0,5.934047327847582e-09
3035.0,5.940164488881122e-09
3036.0,5.9471841818704305e-09
3037.0,5.953167634466076e-09
3038.0,5.9593182226090914e-09
3039.0,5.965268248095268e-09
3040.0,5.97141883623828e-09
3041.0,5.977469143052875e-09
3042.0,5.985324513778988e-09
3043.0,5.99160881035991e-09
3044.0,5.998361086473436e-09
3045.0,6.0079546668921576e-09
3046.0,6.014004973706751e-09
3047.0,6.020021853411871e-09
3048.0,6.0260387331169935e-09
3049.0,6.033125280325249e-09
3050.0,6.039476431125098e-09
3051.0,6.045560165049166e-09
3052.0,6.051610471863758e-09
3053.0,6.0577276328973e-09
3054.0,6.064011929478205e-09
3055.0,6.070129090511744e-09
3056.0,6.078653003427334e-09
3057.0,6.085605842197694e-09
3058.0,6.092090701435438e-09
3059.0,6.098174435359505e-09
3060.0,6.104926711473031e-09
3061.0,6.112347529776013e-09
3062.0,6.118598399247443e-09
3063.0,6.125517810908335e-09
3064.0,6.134509703356544e-09
3065.0,6.14172995900269e-09
3066.0,6.148582516444634e-09
3067.0,6.154866813025541e-09
3068.0,6.163791851254801e-09
3069.0,6.170009293616761e-09
3070.0,6.176159881759774e-09
3071.0,6.182310469902786e-09
3072.0,6.188461058045802e-09
3073.0,6.194979344393014e-09
3074.0,6.2014307765212836e-09
3075.0,6.208049344196917e-09
3076.0,6.214300213668349e-09
3077.0,6.220517656030311e-09
3078.0,6.228005328552236e-09
3079.0,6.234222770914196e-09
3080.0,6.240607348823518e-09
3081.0,6.24996693947593e-09
3082.0,6.257287476450498e-09
3083.0,6.265711108037664e-09
3084.0,6.271961977509096e-09
3085.0,6.278179419871054e-09
3086.0,6.287505583413993e-09
3087.0,6.2937898799949e-09
3088.0,6.304252565259914e-09
3089.0,6.310570288950292e-09
3090.0,6.316921439750141e-09
3091.0,6.323239163440519e-09
3092.0,6.330559700415086e-09
3093.0,6.337144840981245e-09
3094.0,6.345735608115779e-09
3095.0,6.352053331806157e-09
3096.0,6.358872462138627e-09
3097.0,6.365190185829008e-09
3098.0,6.372143024599367e-09
3099.0,6.380299239310754e-09
3100.0,6.386683817220077e-09
3101.0,6.393168676457819e-09
3102.0,6.399753817023983e-09
3103.0,6.4061383949333036e-09
3104.0,6.4125563999521e-09
3105.0,6.419074686299315e-09
3106.0,6.439030670654634e-09
3107.0,6.445950082315527e-09
3108.0,6.452334660224846e-09
3109.0,6.458819519462588e-09
3110.0,6.4714215397338706e-09
3111.0,6.477806117643194e-09
3112.0,6.484224122661993e-09
3113.0,6.495689621211194e-09
3114.0,6.50210762622999e-09
3115.0,6.508726193905623e-09
3116.0,6.533930234448187e-09
3117.0,6.540415093685931e-09
3118.0,6.547000234252091e-09
3119.0,6.553451666380359e-09
3120.0,6.559969952727574e-09
3121.0,6.56695621860741e-09
3122.0,6.5739090573777726e-09
3123.0,6.581296448571282e-09
3124.0,6.590321768128964e-09
3125.0,6.59684005447618e-09
3126.0,6.603458622151813e-09
3127.0,6.610979721783215e-09
3128.0,6.618133123210415e-09
3129.0,6.624684836667103e-09
3130.0,6.641197828746714e-09
3131.0,6.650691127837017e-09
3132.0,6.660719260678885e-09
3133.0,6.673722406263838e-09
3134.0,6.6884303344319165e-09
3135.0,6.697656216646436e-09
3136.0,6.7043082114315424e-09
3137.0,6.7142694900544655e-09
3138.0,6.72981309595936e-09
3139.0,6.736765934729726e-09
3140.0,6.755886241348222e-09
3141.0,6.762671944571221e-09
3142.0,6.769323939356327e-09
3143.0,6.777045601644562e-09
3144.0,6.784533274166495e-09
3145.0,6.791218696061075e-09
3146.0,6.797870690846181e-09
3147.0,6.805759488681785e-09
3148.0,6.812478337685834e-09
3149.0,6.822506470527705e-09
3150.0,6.829225319531758e-09
3151.0,6.836077876973702e-09
3152.0,6.88003452593056e-09
3153.0,6.912325113681376e-09
3154.0,6.9191108169043775e-09
3155.0,6.9338521721819246e-09
3156.0,6.9461199213584775e-09
3157.0,6.9536744480993526e-09
3158.0,6.96096155796444e-09
3159.0,6.972393629404175e-09
3160.0,6.979212759736645e-09
3161.0,6.989508309454298e-09
3162.0,6.996728565100444e-09
3163.0,7.007024114818092e-09
3164.0,7.031225342076473e-09
3165.0,7.045699280478237e-09
3166.0,7.086513781144644e-09
3167.0,7.128297667985765e-09
3168.0,7.1353507880845435e-09
3169.0,7.181112500952942e-09
3170.0,7.188165621051723e-09
3171.0,7.196823242405204e-09
3172.0,7.20427748781766e-09
3173.0,7.24943751271554e-09
3174.0,7.259933625090033e-09
3175.0,7.279655619679043e-09
3176.0,7.3049933686594975e-09
3177.0,7.312213624305644e-09
3178.0,7.31936702573284e-09
3179.0,7.326620708488462e-09
3180.0,7.333807537025135e-09
3181.0,7.3445376391659345e-09
3182.0,7.352292728563648e-09
3183.0,7.3594795571003155e-09
3184.0,7.45364372448547e-09
3185.0,7.461331959664236e-09
3186.0,7.469588455704041e-09
3187.0,7.476908992678607e-09
3188.0,7.484262956762646e-09
3189.0,7.491650347956153e-09
3190.0,7.541991574822336e-09
3191.0,7.569301523261692e-09
3192.0,7.576722341564676e-09
3193.0,7.607207865403963e-09
3194.0,7.652033619207111e-09
3195.0,7.659822135714297e-09
3196.0,7.685627864227374e-09
3197.0,7.693416380734558e-09
3198.0,7.70130517857017e-09
3199.0,7.709160549296293e-09
3200.0,7.716915638694005e-09
3201.0,7.770566149398005e-09
3202.0,7.77929062497043e-09
3203.0,7.788148808980752e-09
3204.0,7.844005508909958e-09
3205.0,7.918247119049263e-09
3206.0,7.926570469308013e-09
3207.0,7.934325558705726e-09
3208.0,7.942047220994007e-09
3209.0,7.954147834623154e-09
3210.0,7.962370903553486e-09
3211.0,7.970092565841725e-09
3212.0,7.97788108234891e-09
3213.0,7.98580330729399e-09
3214.0,8.096814737853476e-09
3215.0,8.107745402651113e-09
3216.0,8.115767908924609e-09
3217.0,8.124258394730724e-09
3218.0,8.132147192566332e-09
3219.0,8.14013627173035e-09
3220.0,8.265354223815822e-09
3221.0,8.31148363488842e-09
3222.0,8.325957573290185e-09
3223.0,8.334147215111047e-09
3224.0,8.343072253340307e-09
3225.0,8.53130030678219e-09
3226.0,8.555702096697404e-09
3227.0,8.563958592737208e-09
3228.0,8.747673986400253e-09
3229.0,8.756599024629513e-09
3230.0,8.765189791764048e-09
3231.0,8.775084216168025e-09
3232.0,8.783541274864668e-09
3233.0,8.79196490645184e-09
3234.0,8.800388538039008e-09
3235.0,8.809380430487217e-09
3236.0,8.818639739811209e-09
3237.0,8.887098460011702e-09
3238.0,8.940682116496759e-09
3239.0,9.12085423655567e-09
3240.0,9.130146972989135e-09
3241.0,9.138938302780507e-09
3242.0,9.147763059681352e-09
3243.0,9.156520962363254e-09
3244.0,9.170961473655542e-09
3245.0,9.185268276509942e-09
3246.0,9.202115539684282e-09
3247.0,9.210873442366181e-09
3248.0,9.219765053485972e-09
3249.0,9.230194311641515e-09
3250.0,9.24052328846864e-09
3251.0,9.250050014668416e-09
3252.0,9.27087510387003e-09
3253.0,9.279699860770875e-09
3254.0,9.288624899000138e-09
3255.0,9.536186071756413e-09
3256.0,9.611564203617794e-09
3257.0,9.662373410016597e-09
3258.0,9.746242027684095e-09
3259.0,9.75546790989861e-09
3260.0,9.765429188521538e-09
3261.0,9.775357040034989e-09
3262.0,9.784683203577926e-09
3263.0,9.904051411505641e-09
3264.0,9.916386014901136e-09
3265.0,9.937545375197484e-09
3266.0,9.946938392959368e-09
3267.0,9.956364837830724e-09
3268.0,9.966526679110486e-09
3269.0,9.991062177463587e-09
3270.0,1.0000555476553893e-08
3271.0,1.0010015348534725e-08
3272.0,1.0021781691069184e-08
3273.0,1.0031475552816323e-08
3274.0,1.0042473071832902e-08
3275.0,1.0140080231493765e-08
3276.0,1.0153016522859777e-08
3277.0,1.0162710384606917e-08
3278.0,1.0175078415111887e-08
3279.0,1.0415954165973577e-08
3280.0,1.0425815163268086e-08
3281.0,1.043657869251836e-08
3282.0,1.0446606825360229e-08
3283.0,1.0456568103983151e-08
3284.0,1.0466696518153434e-08
3285.0,1.0479565955300506e-08
3286.0,1.057436523776564e-08
3287.0,1.058429308927909e-08
3288.0,1.0594254367902014e-08
3289.0,1.0604349354962824e-08
3290.0,1.06938002999123e-08
3291.0,1.0704931527366774e-08
3292.0,1.071512679575601e-08
3293.0,1.0726959992509414e-08
3294.0,1.0759217153150754e-08
3295.0,1.076961298419683e-08
3296.0,1.0779741398367119e-08
3297.0,1.0793279377703642e-08
3298.0,1.1041408811320953e-08
3299.0,1.1056584719021643e-08
3300.0,1.1066947122958248e-08
3301.0,1.1078579757054817e-08
3302.0,1.114660392483216e-08
3303.0,1.115997476862132e-08
3304.0,1.117227594490734e-08
3305.0,1.1185646788696502e-08
3306.0,1.1196276609508883e-08
3307.0,1.1206772721883373e-08
3308.0,1.1217268834257864e-08
3309.0,1.123274558594381e-08
3310.0,1.1244779345354058e-08
3311.0,1.125611113546537e-08
3312.0,1.1267877477999829e-08
3313.0,1.1278407017483793e-08
3314.0,1.1289003411186705e-08
3315.0,1.1300903462159052e-08
3316.0,1.1327945993722626e-08
3317.0,1.1338609241644478e-08
3318.0,1.1349439625113697e-08
3319.0,1.1360203154363976e-08
3320.0,1.1371702080022647e-08
3321.0,1.1382866734586594e-08
3322.0,1.1399112309790423e-08
3323.0,1.1410310391463842e-08
3324.0,1.1420973639385702e-08
3325.0,1.1480106196043251e-08
3326.0,1.1492073101234549e-08
3327.0,1.1504775402834247e-08
3328.0,1.1515572359193996e-08
3329.0,1.1527840108370554e-08
3330.0,1.1538737346058712e-08
3331.0,1.1554481514620447e-08
3332.0,1.1565445606527558e-08
3333.0,1.1632366679692296e-08
3334.0,1.1643631615584667e-08
3335.0,1.165559852077596e-08
3336.0,1.1692936602057185e-08
3337.0,1.1750631793007406e-08
3338.0,1.1786900206785496e-08
3339.0,1.1797864298692613e-08
3340.0,1.1809028953256556e-08
3341.0,1.1831759387698124e-08
3342.0,1.1938826419339813e-08
3343.0,1.1962292250189786e-08
3344.0,1.1974158874052669e-08
3345.0,1.1987663426279715e-08
3346.0,1.2078986289359669e-08
3347.0,1.2343628715056593e-08
3348.0,1.2365155773557139e-08
3349.0,1.2456177792651843e-08
3350.0,1.2687961369736904e-08
3351.0,1.2702869860561816e-08
3352.0,1.2745756842015541e-08
3353.0,1.2828221521085178e-08
3354.0,1.2841792927531178e-08
3355.0,1.2856768272575033e-08
3356.0,1.286953742839368e-08
3357.0,1.2882507146869164e-08
3358.0,1.289447405206046e-08
3359.0,1.2906842082565435e-08
3360.0,1.2926363514497604e-08
3361.0,1.3123082053745601e-08
3362.0,1.32339597758672e-08
3363.0,1.3246461514810063e-08
3364.0,1.3258695836877148e-08
3365.0,1.327263494152734e-08
3366.0,1.3285370670236515e-08
3367.0,1.3298306961602525e-08
3368.0,1.3310741846326442e-08
3369.0,1.3325550055822937e-08
3370.0,1.3338452920079476e-08
3371.0,1.3351088367460228e-08
3372.0,1.3363890950388349e-08
3373.0,1.3376526397769105e-08
3374.0,1.3389596397573007e-08
3375.0,1.3402666397376908e-08
3376.0,1.3419346525003885e-08
3377.0,1.3458456243087175e-08
3378.0,1.3488975194035928e-08
3379.0,1.3501476932978792e-08
3380.0,1.3513911817702712e-08
3381.0,1.3527382942820289e-08
3382.0,1.353998496309157e-08
3383.0,1.355325552555231e-08
3384.0,1.3565957827152009e-08
3385.0,1.3579061254065375e-08
3386.0,1.3724803451367217e-08
3387.0,1.373753918007639e-08
3388.0,1.3752180254025518e-08
3389.0,1.3764982836953638e-08
3390.0,1.3777584857224917e-08
3391.0,1.3790220304605674e-08
3392.0,1.3803190023081157e-08
3393.0,1.3815892324680859e-08
3394.0,1.3828962324484762e-08
3395.0,1.3841631198974985e-08
3396.0,1.3854500636122056e-08
3397.0,1.3868005188349105e-08
3398.0,1.3885654702150794e-08
3399.0,1.3899393244144157e-08
3400.0,1.3952007514454492e-08
3401.0,1.3984231247986368e-08
3402.0,1.3997134112242906e-08
3403.0,1.4010103830718389e-08
3404.0,1.4023307538960185e-08
3405.0,1.40361101218883e-08
3406.0,1.4048946131925898e-08
3407.0,1.4061782141963487e-08
3408.0,1.4074618152001079e-08
3409.0,1.4239313520374042e-08
3410.0,1.425241694728741e-08
3411.0,1.4265420092872377e-08
3412.0,1.4278724082442588e-08
3413.0,1.4291827509355965e-08
3414.0,1.430493093626934e-08
3415.0,1.4319271166233196e-08
3416.0,1.440280551280598e-08
3417.0,1.441617635659514e-08
3418.0,1.4429346637727462e-08
3419.0,1.4443686867691332e-08
3420.0,1.4456924003042596e-08
3421.0,1.447016113839387e-08
3422.0,1.4483765971949338e-08
3423.0,1.4543032237044783e-08
3424.0,1.4556369653724468e-08
3425.0,1.456960678907573e-08
3426.0,1.458291077864595e-08
3427.0,1.4599056072521358e-08
3428.0,1.4612861468733665e-08
3429.0,1.4626800573383863e-08
3430.0,1.4647425099928634e-08
3431.0,1.4663336404037738e-08
3432.0,1.4676740674936371e-08
3433.0,1.4690178372944476e-08
3434.0,1.470361607095258e-08
3435.0,1.4716986914741731e-08
3436.0,1.4730692029625625e-08
3437.0,1.474412972763373e-08
3438.0,1.4821012079421392e-08
3439.0,1.4836388549778926e-08
3440.0,1.4850494789976496e-08
3441.0,1.4863999342203539e-08
3442.0,1.4882751950617832e-08
3443.0,1.4896523919720667e-08
3444.0,1.5166982662465875e-08
3445.0,1.5181189183991864e-08
3446.0,1.5195495986846257e-08
3447.0,1.520926795594909e-08
3448.0,1.5223073352161396e-08
3449.0,1.5236878748373703e-08
3450.0,1.5338296598514476e-08
3451.0,1.5352202276055197e-08
3452.0,1.5366375370471704e-08
3453.0,1.5380381329340848e-08
3454.0,1.539438728820999e-08
3455.0,1.5518335010135498e-08
3456.0,1.553270866720884e-08
3457.0,1.554701547006324e-08
3458.0,1.556122199158922e-08
3459.0,1.5575495367334146e-08
3460.0,1.5651308051618682e-08
3461.0,1.5665581427363603e-08
3462.0,1.5679888230218003e-08
3463.0,1.5694529304167134e-08
3464.0,1.5718028562126577e-08
3465.0,1.5732335364980994e-08
3466.0,1.575927761521613e-08
3467.0,1.5941956768485515e-08
3468.0,1.5958837458769328e-08
3469.0,1.5973244542952144e-08
3470.0,1.598765162713497e-08
3471.0,1.6067041012133093e-08
3472.0,1.6081916075848532e-08
3473.0,1.6096523722688188e-08
3474.0,1.6149338555655363e-08
3475.0,1.6177317046284185e-08
3476.0,1.6192526381094346e-08
3477.0,1.6298690880780268e-08
3478.0,1.6313432236057816e-08
3479.0,1.6328207018444836e-08
3480.0,1.6343650343021323e-08
3481.0,1.6359127094707265e-08
3482.0,1.637406901264165e-08
3483.0,1.6388877222138145e-08
3484.0,1.6403618577415693e-08
3485.0,1.6419061901992176e-08
3486.0,1.643383668437919e-08
3487.0,1.6454227221157658e-08
3488.0,1.6471074484331996e-08
3489.0,1.6566241465001333e-08
3490.0,1.658148422692098e-08
3491.0,1.6597161541263762e-08
3492.0,1.661210345919815e-08
3493.0,1.662704537713253e-08
3494.0,1.664272269147532e-08
3495.0,1.665783174495707e-08
3496.0,1.6672807090000928e-08
3497.0,1.673548292026261e-08
3498.0,1.6752697881641152e-08
3499.0,1.6913816549300515e-08
3500.0,1.693083094802222e-08
3501.0,1.6961149336314137e-08
3502.0,1.698047020558947e-08
3503.0,1.6997518031420647e-08
3504.0,1.701312849154449e-08
3505.0,1.7030811432455654e-08
3506.0,1.7046488746798442e-08
3507.0,1.706216606114123e-08
3508.0,1.7077475677279816e-08
3509.0,1.7133399231427973e-08
3510.0,1.7148875983113925e-08
3511.0,1.7164519870347232e-08
3512.0,1.7181567696178416e-08
3513.0,1.7197445573178045e-08
3514.0,1.725831633952819e-08
3515.0,1.727392679965203e-08
3516.0,1.7289403551337977e-08
3517.0,1.7304980584352352e-08
3518.0,1.7320490763147777e-08
3519.0,1.7336168077490565e-08
3520.0,1.7352179662928083e-08
3521.0,1.7459413830117127e-08
3522.0,1.7475659405320963e-08
3523.0,1.7491804699196372e-08
3524.0,1.7507515440648633e-08
3525.0,1.752319275499142e-08
3526.0,1.75397391741805e-08
3527.0,1.7652087689118914e-08
3528.0,1.7758887303884817e-08
3529.0,1.7774865462212865e-08
3530.0,1.779074333921249e-08
3531.0,1.780665464332158e-08
3532.0,1.782259937454016e-08
3533.0,1.783867781419662e-08
3534.0,1.7856126765341475e-08
3535.0,1.7872606330311613e-08
3536.0,1.7891459220054308e-08
3537.0,1.790927586940338e-08
3538.0,1.7937922902221653e-08
3539.0,1.7957310625715933e-08
3540.0,1.7973455919591342e-08
3541.0,1.8037970240874028e-08
3542.0,1.8054082107639968e-08
3543.0,1.8072099319645862e-08
3544.0,1.8095331160729525e-08
3545.0,1.8136279369833822e-08
3546.0,1.8154062592073398e-08
3547.0,1.8170441875715122e-08
3548.0,1.81871220033421e-08
3549.0,1.8203434432764873e-08
3550.0,1.8240939649593463e-08
3551.0,1.825792062120568e-08
3552.0,1.8274433613285303e-08
3553.0,1.8290913178255444e-08
3554.0,1.8307426170335053e-08
3555.0,1.8333365607286022e-08
3556.0,1.834971146381826e-08
3557.0,1.836635816433577e-08
3558.0,1.8445647268005485e-08
3559.0,1.8462160260085094e-08
3560.0,1.8479107804587852e-08
3561.0,1.8496155630419023e-08
3562.0,1.851300289359337e-08
3563.0,1.853021785497191e-08
3564.0,1.854683112837994e-08
3565.0,1.8565316319918454e-08
3566.0,1.8600347930646054e-08
3567.0,1.861732890225828e-08
3568.0,1.8634176165432622e-08
3569.0,1.8651691970796417e-08
3570.0,1.8668372098423394e-08
3571.0,1.868508565315985e-08
3572.0,1.8701932916334184e-08
3573.0,1.8727337519533585e-08
3574.0,1.8744318491145815e-08
3575.0,1.876434132972008e-08
3576.0,1.87812220200039e-08
3577.0,1.8798804679586636e-08
3578.0,1.8815551661432557e-08
3579.0,1.8873915394572236e-08
3580.0,1.889487419221174e-08
3581.0,1.891172145538609e-08
3582.0,1.892866899988884e-08
3583.0,1.894571682572002e-08
3584.0,1.896410173593011e-08
3585.0,1.8980982426213923e-08
3586.0,1.9004347975735485e-08
3587.0,1.9021429228676128e-08
3588.0,1.9038376773178886e-08
3589.0,1.9055290890572175e-08
3590.0,1.910382705352682e-08
3591.0,1.9121075442014843e-08
3592.0,1.91391260811302e-08
3593.0,1.915620733407085e-08
3594.0,1.917355600388728e-08
3595.0,1.919097152792266e-08
3596.0,1.921012526165064e-08
3597.0,1.9227239941700755e-08
3598.0,1.925929653968526e-08
3599.0,1.9276411219735387e-08
3600.0,1.92936596082234e-08
3601.0,1.9310807715383002e-08
3602.0,1.9334173264904553e-08
3603.0,1.9351421653392567e-08
3604.0,1.937535546377516e-08
3605.0,1.9411623877553253e-08
3606.0,1.9429139682917057e-08
3607.0,1.9446521779842957e-08
3608.0,1.9469085078737163e-08
3609.0,1.9488506229340915e-08
3610.0,1.9506022034704713e-08
3611.0,1.9523370704521154e-08
3612.0,1.9540786228556525e-08
3613.0,1.9561277046663414e-08
3614.0,1.9578625716479847e-08
3615.0,1.960165699490667e-08
3616.0,1.9619507071365207e-08
3617.0,1.963692259540058e-08
3618.0,1.965714599663168e-08
3619.0,1.967469522910495e-08
3620.0,1.9692211034468748e-08
3621.0,1.9710729653116735e-08
3622.0,1.9728980854888937e-08
3623.0,1.9746596941581152e-08
3624.0,1.977711589252991e-08
3625.0,1.979469855211265e-08
3626.0,1.981475481779639e-08
3627.0,1.9832838884021226e-08
3628.0,1.98507558146987e-08
3629.0,1.9868371901390915e-08
3630.0,1.9886021415192605e-08
3631.0,1.9903704356103767e-08
3632.0,1.9921387297014923e-08
3633.0,1.9939571644568185e-08
3634.0,1.995788970055933e-08
3635.0,1.9975606068579966e-08
3636.0,1.999546177160687e-08
3637.0,2.0014782640882195e-08
3638.0,2.0032599290231256e-08
3639.0,2.005596483975281e-08
3640.0,2.0073748061992393e-08
3641.0,2.0091698419779336e-08
3642.0,2.0110451028193628e-08
3643.0,2.0128568521527942e-08
3644.0,2.014708714017593e-08
3645.0,2.0164937216634455e-08
3646.0,2.0183388981063494e-08
3647.0,2.0201773891273576e-08
3648.0,2.021979110327948e-08
3649.0,2.023827629481799e-08
3650.0,2.025803171651647e-08
3651.0,2.027728573157286e-08
3652.0,2.029526951646927e-08
3653.0,2.031823394067716e-08
3654.0,2.0336418288230415e-08
3655.0,2.0354769771331037e-08
3656.0,2.03728204104464e-08
3657.0,2.0391004757999645e-08
3658.0,2.0412498389390728e-08
3659.0,2.0435128542503882e-08
3660.0,2.0453613734042393e-08
3661.0,2.0474171406368222e-08
3662.0,2.0492389181030943e-08
3663.0,2.0511041508116828e-08
3664.0,2.052939299121745e-08
3665.0,2.0549215267134875e-08
3666.0,2.0567533323126025e-08
3667.0,2.0585851379117162e-08
3668.0,2.0609216928638727e-08
3669.0,2.0627802401505655e-08
3670.0,2.064618731171575e-08
3671.0,2.066510705567741e-08
3672.0,2.0686266415973744e-08
3673.0,2.07045844719649e-08
3674.0,2.0723002809284468e-08
3675.0,2.074152142793245e-08
3676.0,2.0760140327908854e-08
3677.0,2.077855866522841e-08
3678.0,2.0800286286385806e-08
